% 0-10% centrality
% pt(GeV)	RAA_min	Raa_max
5	0.12	0.15
8	0.16	0.20
11	0.20	0.25
14	0.24	0.29
17	0.27	0.32
20	0.30	0.35
23	0.32	0.38
26	0.35	0.41
29	0.37	0.43
32	0.38	0.45
35	0.40	0.46
38	0.41	0.48
41	0.43	0.49
44	0.44	0.51
47	0.45	0.52
50	0.46	0.53
