% 60-80% centrality:
% pt(GeV)	RAA_min	Raa_max
5	0.45	0.48
8	0.53	0.56
11	0.59	0.63
14	0.64	0.67
17	0.68	0.71
20	0.71	0.74
23	0.73	0.76
26	0.75	0.78
29	0.76	0.79
32	0.78	0.81
35	0.79	0.82
38	0.80	0.83
41	0.81	0.84
44	0.82	0.84
47	0.83	0.85
50	0.83	0.86
