% 40-60% centrality:
% pt(GeV)	RAA_min	Raa_max
5	0.30	0.34
8	0.37	0.42
11	0.44	0.48
14	0.49	0.53
17	0.53	0.58
20	0.56	0.61
23	0.59	0.64
26	0.62	0.66
29	0.64	0.68
32	0.66	0.70
35	0.67	0.71
38	0.69	0.73
41	0.70	0.74
44	0.71	0.75
47	0.72	0.76
50	0.73	0.77

