% 40-60% centrality:
% pt(GeV)	RAA_min	Raa_max
5	0.29	0.32
8	0.39	0.42
11	0.47	0.50
14	0.53	0.57
17	0.58	0.61
20	0.62	0.65
23	0.66	0.69
26	0.69	0.71
29	0.71	0.74
32	0.73	0.76
35	0.75	0.78
38	0.77	0.79
41	0.78	0.80
44	0.80	0.82
47	0.81	0.83
50	0.82	0.83

