% 20-50% centrality
% pt(GeV)	RAA_min	Raa_max
5	0.20	0.23
8	0.28	0.31
11	0.35	0.39
14	0.40	0.45
17	0.45	0.50
20	0.49	0.54
23	0.53	0.57
26	0.56	0.60
29	0.59	0.63
32	0.61	0.65
35	0.63	0.67
38	0.65	0.69
41	0.67	0.71
44	0.69	0.72
47	0.70	0.74
50	0.72	0.75
