% 20-40% centrality:
% pt(GeV)	RAA_min	Raa_max
5	0.21	0.24
8	0.27	0.31
11	0.33	0.37
14	0.37	0.42
17	0.41	0.46
20	0.44	0.50
23	0.47	0.53
26	0.50	0.55
29	0.52	0.57
32	0.54	0.59
35	0.55	0.61
38	0.57	0.63
41	0.58	0.64
44	0.60	0.65
47	0.61	0.66
50	0.62	0.67

