% 0-10% centrality
% pt(GeV)	RAA_min	Raa_max
5	0.10	0.12
8	0.15	0.18
11	0.19	0.23
14	0.23	0.28
17	0.27	0.32
20	0.30	0.36
23	0.33	0.39
26	0.36	0.42
29	0.39	0.45
32	0.41	0.47
35	0.43	0.49
38	0.45	0.51
41	0.47	0.53
44	0.49	0.55
47	0.50	0.56
50	0.52	0.58
